Winding Voltages under Load 
Air-Gap Position (elec. degrees)
Voltage (V)
0	9.87735
1	11.4557
2	13.0082
3	14.5353
4	16.0375
5	17.5154
6	18.9692
7	20.3993
8	21.8063
9	23.1905
10	24.5525
11	25.8929
12	27.2128
13	28.5129
14	29.7948
15	31.0597
16	32.3093
17	33.5454
18	34.7698
19	35.9843
20	37.1908
21	38.3909
22	39.5861
23	40.7778
24	41.9671
25	43.155
26	44.3422
27	45.5293
28	46.7168
29	47.9054
30	49.0954
31	50.2874
32	51.482
33	52.6799
34	53.8818
35	55.0885
36	56.301
37	57.5201
38	58.7454
39	59.9764
40	61.2163
41	62.4657
42	63.7249
43	64.9943
44	66.274
45	67.5625
46	68.8584
47	70.1641
48	71.479
49	72.8029
50	74.1351
51	75.4752
52	76.821
53	78.1707
54	79.5257
55	80.8853
56	82.2483
57	83.6135
58	84.9782
59	86.3399
60	87.6997
61	89.0561
62	90.4077
63	91.7532
64	93.0912
65	94.4204
66	95.7395
67	97.0473
68	98.3426
69	99.624
70	100.89
71	102.14
72	103.371
73	104.582
74	105.771
75	106.935
76	108.073
77	109.181
78	110.258
79	111.3
80	112.306
81	113.272
82	114.197
83	115.079
84	115.916
85	116.706
86	117.448
87	118.141
88	118.783
89	119.374
90	119.913
91	120.398
92	120.829
93	121.204
94	121.522
95	121.781
96	121.981
97	122.12
98	122.198
99	122.216
100	122.169
101	122.056
102	121.878
103	121.632
104	121.32
105	120.942
106	120.499
107	119.988
108	119.41
109	118.766
110	118.054
111	117.276
112	116.434
113	115.529
114	114.559
115	113.526
116	112.43
117	111.273
118	110.057
119	108.784
120	107.454
121	106.068
122	104.627
123	103.133
124	101.587
125	99.991
126	98.3455
127	96.6521
128	94.9123
129	93.1274
130	91.2991
131	89.4289
132	87.5187
133	85.5705
134	83.5865
135	81.5693
136	79.5213
137	77.4455
138	75.3446
139	73.2214
140	71.0789
141	68.9197
142	66.7463
143	64.5611
144	62.3663
145	60.1638
146	57.9554
147	55.7428
148	53.5276
149	51.3113
150	49.0954
151	46.8815
152	44.6712
153	42.4663
154	40.2685
155	38.0797
156	35.9019
157	33.7368
158	31.5852
159	29.4476
160	27.3281
161	25.2285
162	23.1501
163	21.0942
164	19.0619
165	17.0529
166	15.0667
167	13.1065
168	11.1731
169	9.26696
170	7.38853
171	5.53821
172	3.71505
173	1.91789
174	0.149445
175	-1.59033
176	-3.3016
177	-4.98462
178	-6.64104
179	-8.27265
180	-9.87735
181	-11.4557
182	-13.0081
183	-14.5353
184	-16.0375
185	-17.5154
186	-18.9692
187	-20.3993
188	-21.8063
189	-23.1905
190	-24.5525
191	-25.8929
192	-27.2127
193	-28.5129
194	-29.7948
195	-31.0597
196	-32.3093
197	-33.5454
198	-34.7698
199	-35.9843
200	-37.1908
201	-38.3909
202	-39.5861
203	-40.7778
204	-41.9671
205	-43.155
206	-44.3422
207	-45.5293
208	-46.7168
209	-47.9054
210	-49.0954
211	-50.2874
212	-51.482
213	-52.6799
214	-53.8818
215	-55.0885
216	-56.301
217	-57.5201
218	-58.7454
219	-59.9764
220	-61.2163
221	-62.4657
222	-63.7249
223	-64.9944
224	-66.274
225	-67.5625
226	-68.8584
227	-70.1641
228	-71.479
229	-72.8029
230	-74.1352
231	-75.4752
232	-76.821
233	-78.1707
234	-79.5258
235	-80.8853
236	-82.2483
237	-83.6135
238	-84.9782
239	-86.3399
240	-87.6997
241	-89.0561
242	-90.4077
243	-91.7532
244	-93.0912
245	-94.4204
246	-95.7395
247	-97.0473
248	-98.3426
249	-99.624
250	-100.89
251	-102.14
252	-103.371
253	-104.582
254	-105.771
255	-106.935
256	-108.073
257	-109.181
258	-110.258
259	-111.3
260	-112.306
261	-113.272
262	-114.197
263	-115.079
264	-115.916
265	-116.706
266	-117.448
267	-118.141
268	-118.783
269	-119.374
270	-119.913
271	-120.398
272	-120.829
273	-121.204
274	-121.522
275	-121.781
276	-121.981
277	-122.12
278	-122.198
279	-122.216
280	-122.169
281	-122.056
282	-121.878
283	-121.632
284	-121.32
285	-120.942
286	-120.499
287	-119.988
288	-119.41
289	-118.766
290	-118.054
291	-117.276
292	-116.434
293	-115.529
294	-114.559
295	-113.526
296	-112.43
297	-111.273
298	-110.057
299	-108.784
300	-107.454
301	-106.068
302	-104.627
303	-103.133
304	-101.587
305	-99.991
306	-98.3455
307	-96.6521
308	-94.9123
309	-93.1274
310	-91.2991
311	-89.4289
312	-87.5187
313	-85.5705
314	-83.5865
315	-81.5693
316	-79.5213
317	-77.4455
318	-75.3446
319	-73.2215
320	-71.0789
321	-68.9197
322	-66.7463
323	-64.5611
324	-62.3663
325	-60.1638
326	-57.9554
327	-55.7428
328	-53.5276
329	-51.3113
330	-49.0954
331	-46.8815
332	-44.6712
333	-42.4663
334	-40.2685
335	-38.0797
336	-35.9019
337	-33.7368
338	-31.5852
339	-29.4476
340	-27.3281
341	-25.2285
342	-23.1501
343	-21.0942
344	-19.0619
345	-17.0529
346	-15.0667
347	-13.1065
348	-11.1731
349	-9.26696
350	-7.38853
351	-5.53821
352	-3.71505
353	-1.91789
354	-0.149444
355	1.59033
356	3.3016
357	4.98462
358	6.64104
359	8.27265
360	9.87735
Phase Voltage va
0	97.577
1	100.512
2	103.416
3	106.289
4	109.129
5	111.936
6	114.709
7	117.447
8	120.149
9	122.814
10	125.443
11	128.033
12	130.584
13	133.095
14	135.565
15	137.995
16	140.382
17	142.727
18	145.028
19	147.285
20	149.497
21	151.663
22	153.783
23	155.857
24	157.883
25	159.861
26	161.79
27	163.67
28	165.5
29	167.28
30	169.008
31	170.686
32	172.311
33	173.884
34	175.403
35	176.87
36	178.282
37	179.64
38	180.944
39	182.192
40	183.385
41	184.522
42	185.603
43	186.627
44	187.594
45	188.504
46	189.357
47	190.152
48	190.889
49	191.569
50	192.189
51	192.751
52	193.255
53	193.699
54	194.085
55	194.411
56	194.679
57	194.887
58	195.035
59	195.124
60	195.154
61	195.124
62	195.035
63	194.887
64	194.679
65	194.411
66	194.085
67	193.699
68	193.255
69	192.751
70	192.189
71	191.569
72	190.889
73	190.152
74	189.357
75	188.504
76	187.594
77	186.627
78	185.603
79	184.522
80	183.385
81	182.192
82	180.944
83	179.64
84	178.282
85	176.87
86	175.403
87	173.884
88	172.311
89	170.686
90	169.008
91	167.28
92	165.5
93	163.67
94	161.79
95	159.861
96	157.883
97	155.857
98	153.783
99	151.663
100	149.497
101	147.285
102	145.028
103	142.727
104	140.382
105	137.995
106	135.565
107	133.095
108	130.584
109	128.033
110	125.443
111	122.814
112	120.149
113	117.447
114	114.709
115	111.936
116	109.129
117	106.289
118	103.416
119	100.512
120	97.577
121	94.6126
122	91.6193
123	88.5981
124	85.5499
125	82.4757
126	79.3763
127	76.2528
128	73.106
129	69.937
130	66.7466
131	63.5359
132	60.3059
133	57.0575
134	53.7917
135	50.5096
136	47.212
137	43.9001
138	40.5748
139	37.2371
140	33.8881
141	30.5288
142	27.1602
143	23.7833
144	20.3992
145	17.0088
146	13.6133
147	10.2136
148	6.81078
149	3.40591
150	9.45022e-13
151	-3.40591
152	-6.81078
153	-10.2136
154	-13.6133
155	-17.0088
156	-20.3992
157	-23.7833
158	-27.1602
159	-30.5288
160	-33.8881
161	-37.2371
162	-40.5748
163	-43.9001
164	-47.212
165	-50.5096
166	-53.7917
167	-57.0575
168	-60.3059
169	-63.5359
170	-66.7466
171	-69.937
172	-73.106
173	-76.2528
174	-79.3763
175	-82.4757
176	-85.5499
177	-88.5981
178	-91.6193
179	-94.6126
180	-97.577
181	-100.512
182	-103.416
183	-106.289
184	-109.129
185	-111.936
186	-114.709
187	-117.447
188	-120.149
189	-122.814
190	-125.443
191	-128.033
192	-130.584
193	-133.095
194	-135.565
195	-137.995
196	-140.382
197	-142.727
198	-145.028
199	-147.285
200	-149.497
201	-151.663
202	-153.783
203	-155.857
204	-157.883
205	-159.861
206	-161.79
207	-163.67
208	-165.5
209	-167.28
210	-169.008
211	-170.686
212	-172.311
213	-173.884
214	-175.403
215	-176.87
216	-178.282
217	-179.64
218	-180.944
219	-182.192
220	-183.385
221	-184.522
222	-185.603
223	-186.627
224	-187.594
225	-188.504
226	-189.357
227	-190.152
228	-190.889
229	-191.569
230	-192.189
231	-192.751
232	-193.255
233	-193.699
234	-194.085
235	-194.411
236	-194.679
237	-194.887
238	-195.035
239	-195.124
240	-195.154
241	-195.124
242	-195.035
243	-194.887
244	-194.679
245	-194.411
246	-194.085
247	-193.699
248	-193.255
249	-192.751
250	-192.189
251	-191.569
252	-190.889
253	-190.152
254	-189.357
255	-188.504
256	-187.594
257	-186.627
258	-185.603
259	-184.522
260	-183.385
261	-182.192
262	-180.944
263	-179.64
264	-178.282
265	-176.87
266	-175.403
267	-173.884
268	-172.311
269	-170.686
270	-169.008
271	-167.28
272	-165.5
273	-163.67
274	-161.79
275	-159.861
276	-157.883
277	-155.857
278	-153.783
279	-151.663
280	-149.497
281	-147.285
282	-145.028
283	-142.727
284	-140.382
285	-137.995
286	-135.565
287	-133.095
288	-130.584
289	-128.033
290	-125.443
291	-122.814
292	-120.149
293	-117.447
294	-114.709
295	-111.936
296	-109.129
297	-106.289
298	-103.416
299	-100.512
300	-97.577
301	-94.6126
302	-91.6193
303	-88.5981
304	-85.5499
305	-82.4757
306	-79.3763
307	-76.2528
308	-73.106
309	-69.937
310	-66.7466
311	-63.5359
312	-60.3059
313	-57.0575
314	-53.7917
315	-50.5096
316	-47.212
317	-43.9001
318	-40.5748
319	-37.2371
320	-33.8881
321	-30.5288
322	-27.1602
323	-23.7833
324	-20.3992
325	-17.0088
326	-13.6133
327	-10.2136
328	-6.81078
329	-3.40591
330	2.84217e-14
331	3.40591
332	6.81078
333	10.2136
334	13.6133
335	17.0088
336	20.3992
337	23.7833
338	27.1602
339	30.5288
340	33.8881
341	37.2371
342	40.5748
343	43.9001
344	47.212
345	50.5096
346	53.7917
347	57.0575
348	60.3059
349	63.5359
350	66.7466
351	69.937
352	73.106
353	76.2528
354	79.3763
355	82.4757
356	85.5499
357	88.5981
358	91.6193
359	94.6126
360	97.577
Line Voltage vab
